#MFT Mesh-HWP v2 (GP - 2019/06/22) - HFSS simulations						
#Freq [GHz]	Tx_Cap	Ax_Cap	Tx_Ind	Ax_Ind	DPh [deg]	Cx_Pol-45d

89	0.96758	0.00374	0.91794	0.05558	165.46122	-18.16654
90	0.9772	0.00383	0.92693	0.05186	168.55803	-24.39371
91	0.98484	0.00391	0.93483	0.04849	171.45174	-29.36815
92	0.99048	0.00398	0.94165	0.04547	174.14237	-33.08986
93	0.99412	0.00404	0.94739	0.0428	176.62991	-35.55883
94	0.99578	0.0041	0.95204	0.04048	178.91437	-36.77508
95	0.99544	0.00415	0.95561	0.03851	180.99573	-36.7386
96	0.9931	0.00419	0.9581	0.0369	182.87401	-35.44938
97	0.98877	0.00423	0.9595	0.03563	184.5492	-32.90743
98	0.98245	0.00426	0.95982	0.03472	186.0213	-29.11276
99	0.97414	0.00428	0.95905	0.03416	187.29031	-24.06535
100	0.97081	0.00431	0.96025	0.03315	188.8193	-22.34175
101	0.96782	0.00435	0.96138	0.03222	190.29956	-20.89093
102	0.96517	0.00439	0.96245	0.03138	191.73109	-19.7129
103	0.96285	0.00443	0.96345	0.03062	193.11389	-18.80764
104	0.96086	0.00447	0.96438	0.02994	194.44796	-18.17517
105	0.962	0.00453	0.96442	0.02928	195.645	        -17.38126
106	0.96441	0.00459	0.96412	0.02868	196.76387	-16.7154
107	0.96809	0.00466	0.96348	0.02815	197.80459	-16.17758
108	0.97303	0.00474	0.96249	0.02767	198.76714	-15.7678
109	0.97924	0.00482	0.96117	0.02726	199.65153	-15.48606
110	0.9819	0.00489	0.96071	0.02689	200.41639	-15.12629
111	0.98422	0.00495	0.96033	0.02657	201.0893	-14.82586
112	0.9862	0.00502	0.96	0.02631	201.67026	-14.58479
113	0.98784	0.00509	0.95975	0.02611	202.15927	-14.40307
114	0.98914	0.00516	0.95955	0.02596	202.55632	-14.28069
115	0.98668	0.00521	0.95943	0.02568	203.05854	-14.09462
116	0.98275	0.00525	0.95937	0.0254	203.5345	-13.92688
117	0.97734	0.00529	0.95938	0.02512	203.98422	-13.77747
118	0.97045	0.00532	0.95946	0.02483	204.40769	-13.6464
119	0.96209	0.00535	0.9596	0.02454	204.80492	-13.53366
120	0.95668	0.00539	0.9591	0.02418	205.30838	-13.37653
121	0.95127	0.00543	0.95843	0.02379	205.82975	-13.21681
122	0.94587	0.00546	0.95758	0.02338	206.36904	-13.05452
123	0.94047	0.0055	0.95657	0.02293	206.92624	-12.88965
124	0.93506	0.00554	0.95538	0.02246	207.50136	-12.7222
125	0.93405	0.00561	0.95429	0.02206	207.9883	-12.57599
126	0.9345	0.00568	0.95312	0.02165	208.45781	-12.43515
127	0.93642	0.00576	0.95186	0.02125	208.90986	-12.29967
128	0.9398	0.00585	0.95052	0.02086	209.34447	-12.16955
129	0.94464	0.00594	0.9491	0.02047	209.76163	-12.04479
130	0.94927	0.00604	0.94856	0.02014	210.02949	-11.95705
131	0.9548	0.00615	0.94826	0.01985	210.23596	-11.88523
132	0.96123	0.00626	0.9482	0.01958	210.38104	-11.82933
133	0.96856	0.00637	0.94838	0.01934	210.46471	-11.78934
134	0.9768	0.00649	0.9488	0.01912	210.487		-11.76526
135	0.9813	0.0066	0.94965	0.01891	210.49897	-11.74927
136	0.98515	0.00669	0.9508	0.01871	210.46658	-11.74657
137	0.98836	0.00679	0.95225	0.01853	210.38982	-11.75718
138	0.99093	0.00688	0.95401	0.01837	210.2687	-11.78109
139	0.99286	0.00697	0.95607	0.01823	210.10321	-11.81831
140	0.99353	0.00705	0.95737	0.01806	210.03033	-11.83458
141	0.99335	0.00713	0.95862	0.01789	209.95875	-11.85274
142	0.99232	0.00721	0.95982	0.01773	209.88847	-11.87279
143	0.99045	0.00727	0.96096	0.01758	209.81948	-11.89473
144	0.98773	0.00734	0.96205	0.01743	209.75178	-11.91855
145	0.98712	0.00742	0.96226	0.01728	209.68001	-11.94014
146	0.98664	0.0075	0.96215	0.01714	209.60775	-11.96225
147	0.98629	0.00759	0.9617	0.017	209.535		-11.98487
148	0.98608	0.00767	0.96092	0.01686	209.46175	-12.00801
149	0.98601	0.00776	0.95982	0.01673	209.388		-12.03166
150	0.98651	0.00786	0.95931	0.01661	209.21985	-12.0808
151	0.98728	0.00796	0.95878	0.01651	209.01991	-12.13877
152	0.98834	0.00807	0.95823	0.01641	208.78816	-12.20559
153	0.98967	0.00818	0.95766	0.01632	208.52462	-12.28124
154	0.99129	0.00829	0.95708	0.01624	208.22928	-12.36573
155	0.99115	0.00839	0.95783	0.01616	207.92564	-12.45761
156	0.99061	0.00849	0.95901	0.01608	207.59803	-12.55784
157	0.98968	0.00859	0.96063	0.01601	207.24645	-12.66643
158	0.98835	0.00869	0.96267	0.01594	206.87091	-12.78337
159	0.98662	0.00879	0.96516	0.01587	206.47141	-12.90866
160	0.98449	0.00888	0.96752	0.01578	206.16038	-13.00892
161	0.98196	0.00897	0.97012	0.01569	205.86287	-13.1064
162	0.97904	0.00906	0.97298	0.01559	205.57887	-13.20111
163	0.97572	0.00915	0.97608	0.01549	205.30839	-13.29304
164	0.97199	0.00924	0.97943	0.01539	205.05142	-13.38219
165	0.96998	0.00933	0.98111	0.01528	204.80941	-13.46533
166	0.96827	0.00944	0.9824	0.01516	204.58138	-13.54462
167	0.96686	0.00954	0.9833	0.01504	204.36736	-13.62006
168	0.96575	0.00965	0.98381	0.01491	204.16733	-13.69165
169	0.96495	0.00976	0.98393	0.01478	203.98129	-13.75938
170	0.96506	0.00988	0.98354	0.01467	203.69865	-13.86286
171	0.96568	0.01001	0.98272	0.01457	203.39314	-13.97568
172	0.9668	0.01014	0.98147	0.01448	203.06477	-14.09785
173	0.96843	0.01027	0.97979	0.01438	202.71352	-14.22936
174	0.97057	0.01042	0.97768	0.01429	202.33941	-14.37022
175	0.97196	0.01055	0.97704	0.01422	201.90722	-14.53999
176	0.97344	0.0107	0.97661	0.01416	201.44042	-14.72564
177	0.97502	0.01084	0.97639	0.01411	200.93902	-14.92715
178	0.97668	0.01098	0.97637	0.01406	200.40302	-15.14453
179	0.97844	0.01113	0.97655	0.01402	199.83241	-15.37778
180	0.97944	0.01128	0.97732	0.01397	199.29921	-15.61121
181	0.98026	0.01142	0.97843	0.01391	198.7554	-15.85528
182	0.98089	0.01157	0.97986	0.01385	198.201		-16.10998
183	0.98133	0.01172	0.98163	0.01379	197.63599	-16.37533
184	0.98158	0.01186	0.98374	0.01373	197.06038	-16.65131
185	0.98168	0.01201	0.98417	0.01364	196.49992	-16.94118
186	0.9816	0.01216	0.98427	0.01354	195.93744	-17.24276
187	0.98134	0.01232	0.98403	0.01344	195.37294	-17.55607
188	0.9809	0.01247	0.98346	0.01332	194.80643	-17.8811
189	0.98029	0.01263	0.98256	0.0132	194.2379	-18.21784
190	0.97948	0.01278	0.98082	0.01309	193.60958	-18.62718
191	0.9785	0.01294	0.97857	0.01298	192.95999	-19.06854
192	0.97733	0.0131	0.97582	0.01288	192.28913	-19.5419
193	0.97598	0.01326	0.97257	0.01277	191.59699	-20.04728
194	0.97445	0.01342	0.96881	0.01267	190.88359	-20.58466
195	0.97327	0.0136	0.96714	0.01261	190.14226	-21.24457
196	0.97208	0.01377	0.96583	0.01256	189.37745	-21.96666
197	0.97089	0.01396	0.96487	0.01253	188.58914	-22.75094
198	0.9697	0.01414	0.96428	0.01252	187.77735	-23.59739
199	0.9685	0.01433	0.96404	0.01252	186.94207	-24.50603
200	0.96831	0.01455	0.96524	0.01253	186.15172	-25.69344
201	0.96846	0.01477	0.96716	0.01254	185.36069	-27.01523
202	0.96894	0.01501	0.9698	0.01257	184.56898	-28.47139
203	0.96976	0.01525	0.97315	0.01261	183.77658	-30.06194
204	0.97091	0.01551	0.97722	0.01266	182.9835	-31.78687
205	0.97201	0.01577	0.97875	0.01265	182.19866	-33.59303
206	0.97331	0.01604	0.97991	0.01263	181.4161	-35.51587
207	0.97482	0.01632	0.98069	0.0126	180.63584	-37.55537
208	0.97653	0.01661	0.98111	0.01257	179.85787	-39.71153
209	0.97845	0.0169	0.98116	0.01252	179.08219	-41.98437
210	0.97926	0.01719	0.97852	0.01243	178.21334	-40.92535
211	0.97983	0.01748	0.97474	0.01234	177.31495	-38.83349
212	0.98017	0.01777	0.96981	0.01222	176.38704	-35.7088
213	0.98028	0.01806	0.96375	0.01209	175.4296	-31.55126
214	0.98016	0.01836	0.95653	0.01193	174.44262	-26.36089
215	0.98016	0.01867	0.95172	0.01183	173.38587	-24.38249
216	0.98004	0.019	0.94695	0.01173	172.28618	-22.7862
217	0.97981	0.01933	0.94221	0.01163	171.14354	-21.57202
218	0.97947	0.01966	0.93751	0.01153	169.95796	-20.73993
219	0.97902	0.02001	0.93285	0.01144	168.72943	-20.28994
220	0.97863	0.02038	0.92938	0.01137	167.58122	-19.38303
221	0.9782	0.02076	0.92632	0.01131	166.43116	-18.57853
222	0.97771	0.02116	0.92368	0.01125	165.27924	-17.87647
223	0.97717	0.02157	0.92146	0.01121	164.12547	-17.27682
224	0.97657	0.02199	0.91966	0.01117	162.96984	-16.7796
